x (mm) 	 LET (MeV/mm) 
0.0000E+00 7.2561E-01
6.8780E-01 7.2832E-01
1.3730E+00 7.3105E-01
2.0557E+00 7.3382E-01
2.7358E+00 7.3660E-01
3.4133E+00 7.3942E-01
4.0882E+00 7.4226E-01
4.7605E+00 7.4513E-01
5.4302E+00 7.3878E-01
6.0973E+00 7.4054E-01
6.7618E+00 7.4232E-01
7.4237E+00 7.4413E-01
8.0830E+00 7.4596E-01
8.7397E+00 7.4782E-01
9.3937E+00 7.4971E-01
1.0045E+01 7.5163E-01
1.0694E+01 7.5357E-01
1.1340E+01 7.5554E-01
1.1983E+01 7.5755E-01
1.2624E+01 7.5958E-01
1.3262E+01 7.6164E-01
1.3898E+01 7.6373E-01
1.4531E+01 7.6585E-01
1.5161E+01 7.6801E-01
1.5788E+01 7.7019E-01
1.6413E+01 7.7241E-01
1.7035E+01 7.7466E-01
1.7654E+01 7.7694E-01
1.8271E+01 7.7926E-01
1.8885E+01 7.8161E-01
1.9496E+01 7.8400E-01
2.0104E+01 7.8642E-01
2.0710E+01 7.8887E-01
2.1313E+01 7.9137E-01
2.1914E+01 7.9390E-01
2.2511E+01 7.9646E-01
2.3106E+01 7.9907E-01
2.3698E+01 8.0172E-01
2.4287E+01 8.0440E-01
2.4874E+01 8.0713E-01
2.5457E+01 8.0989E-01
2.6038E+01 8.1270E-01
2.6616E+01 8.1555E-01
2.7192E+01 8.1844E-01
2.7764E+01 8.2138E-01
2.8334E+01 8.2436E-01
2.8901E+01 8.2739E-01
2.9465E+01 8.3046E-01
3.0026E+01 8.3358E-01
3.0585E+01 8.3675E-01
3.1140E+01 8.3997E-01
3.1693E+01 8.4323E-01
3.2243E+01 8.4655E-01
3.2790E+01 8.4992E-01
3.3334E+01 8.5334E-01
3.3876E+01 8.5682E-01
3.4414E+01 8.6034E-01
3.4950E+01 8.6393E-01
3.5482E+01 8.6757E-01
3.6012E+01 8.7127E-01
3.6539E+01 8.7503E-01
3.7063E+01 8.7885E-01
3.7584E+01 8.8273E-01
3.8102E+01 8.8667E-01
3.8618E+01 8.9068E-01
3.9130E+01 8.9475E-01
3.9639E+01 8.9889E-01
4.0146E+01 9.0309E-01
4.0649E+01 9.0737E-01
4.1149E+01 9.1171E-01
4.1647E+01 9.1613E-01
4.2142E+01 9.2062E-01
4.2633E+01 9.2519E-01
4.3122E+01 9.2984E-01
4.3607E+01 9.3456E-01
4.4090E+01 9.3937E-01
4.4569E+01 9.4425E-01
4.5046E+01 9.4922E-01
4.5519E+01 9.5428E-01
4.5990E+01 9.5943E-01
4.6457E+01 9.6466E-01
4.6922E+01 9.6999E-01
4.7383E+01 9.7542E-01
4.7841E+01 9.8094E-01
4.8297E+01 9.8656E-01
4.8749E+01 9.9228E-01
4.9198E+01 9.9811E-01
4.9644E+01 1.0040E+00
5.0087E+01 1.0101E+00
5.0526E+01 1.0162E+00
5.0963E+01 1.0225E+00
5.1396E+01 1.0289E+00
5.1827E+01 1.0354E+00
5.2254E+01 1.0422E+00
5.2678E+01 1.0496E+00
5.3099E+01 1.0582E+00
5.3517E+01 1.0684E+00
5.3931E+01 1.0783E+00
5.4343E+01 1.0827E+00
5.4751E+01 1.0786E+00
5.5156E+01 1.0718E+00
5.5957E+01 1.0930E+00
5.6036E+01 1.0979E+00
5.6115E+01 1.1030E+00
5.6194E+01 1.1082E+00
5.6273E+01 1.1133E+00
5.6352E+01 1.1182E+00
5.6431E+01 1.1228E+00
5.6509E+01 1.1271E+00
5.6588E+01 1.1310E+00
5.6666E+01 1.1345E+00
5.6744E+01 1.1376E+00
5.6822E+01 1.1402E+00
5.6900E+01 1.1424E+00
5.6978E+01 1.1443E+00
5.7056E+01 1.1458E+00
5.7133E+01 1.1470E+00
5.7211E+01 1.1481E+00
5.7288E+01 1.1489E+00
5.7365E+01 1.1497E+00
5.7442E+01 1.1503E+00
5.7519E+01 1.1510E+00
5.7596E+01 1.1516E+00
5.7672E+01 1.1523E+00
5.7749E+01 1.1531E+00
5.7825E+01 1.1539E+00
5.7901E+01 1.1548E+00
5.7977E+01 1.1559E+00
5.8053E+01 1.1570E+00
5.8129E+01 1.1582E+00
5.8205E+01 1.1595E+00
5.8280E+01 1.1609E+00
5.8356E+01 1.1623E+00
5.8431E+01 1.1639E+00
5.8506E+01 1.1654E+00
5.8581E+01 1.1671E+00
5.8656E+01 1.1688E+00
5.8731E+01 1.1705E+00
5.8806E+01 1.1723E+00
5.8880E+01 1.1741E+00
5.8955E+01 1.1759E+00
5.9029E+01 1.1778E+00
5.9103E+01 1.1796E+00
5.9177E+01 1.1815E+00
5.9251E+01 1.1834E+00
5.9325E+01 1.1853E+00
5.9398E+01 1.1872E+00
5.9472E+01 1.1892E+00
5.9545E+01 1.1911E+00
5.9618E+01 1.1931E+00
5.9691E+01 1.1950E+00
5.9764E+01 1.1970E+00
5.9837E+01 1.1990E+00
5.9910E+01 1.2010E+00
5.9982E+01 1.2030E+00
6.0055E+01 1.2050E+00
6.0127E+01 1.2070E+00
6.0199E+01 1.2091E+00
6.0271E+01 1.2111E+00
6.0343E+01 1.2132E+00
6.0415E+01 1.2152E+00
6.0486E+01 1.2173E+00
6.0558E+01 1.2194E+00
6.0629E+01 1.2215E+00
6.0700E+01 1.2236E+00
6.0771E+01 1.2257E+00
6.0842E+01 1.2278E+00
6.0913E+01 1.2299E+00
6.0984E+01 1.2321E+00
6.1054E+01 1.2342E+00
6.1125E+01 1.2364E+00
6.1195E+01 1.2385E+00
6.1265E+01 1.2407E+00
6.1335E+01 1.2429E+00
6.1405E+01 1.2451E+00
6.1475E+01 1.2473E+00
6.1544E+01 1.2495E+00
6.1614E+01 1.2518E+00
6.1683E+01 1.2540E+00
6.1752E+01 1.2563E+00
6.1821E+01 1.2585E+00
6.1890E+01 1.2608E+00
6.1959E+01 1.2631E+00
6.2028E+01 1.2654E+00
6.2096E+01 1.2677E+00
6.2165E+01 1.2700E+00
6.2233E+01 1.2723E+00
6.2301E+01 1.2747E+00
6.2369E+01 1.2770E+00
6.2437E+01 1.2794E+00
6.2505E+01 1.2817E+00
6.2572E+01 1.2841E+00
6.2640E+01 1.2865E+00
6.2707E+01 1.2889E+00
6.2774E+01 1.2914E+00
6.2841E+01 1.2938E+00
6.2908E+01 1.2962E+00
6.2975E+01 1.2987E+00
6.3041E+01 1.3012E+00
6.3108E+01 1.3036E+00
6.3174E+01 1.3061E+00
6.3241E+01 1.3086E+00
6.3307E+01 1.3112E+00
6.3373E+01 1.3137E+00
6.3438E+01 1.3162E+00
6.3504E+01 1.3188E+00
6.3570E+01 1.3214E+00
6.3635E+01 1.3240E+00
6.3700E+01 1.3266E+00
6.3765E+01 1.3292E+00
6.3830E+01 1.3318E+00
6.3895E+01 1.3344E+00
6.3960E+01 1.3371E+00
6.4024E+01 1.3397E+00
6.4089E+01 1.3424E+00
6.4153E+01 1.3451E+00
6.4217E+01 1.3478E+00
6.4281E+01 1.3505E+00
6.4345E+01 1.3533E+00
6.4409E+01 1.3560E+00
6.4473E+01 1.3588E+00
6.4536E+01 1.3616E+00
6.4599E+01 1.3644E+00
6.4663E+01 1.3672E+00
6.4726E+01 1.3700E+00
6.4789E+01 1.3728E+00
6.4851E+01 1.3757E+00
6.4914E+01 1.3785E+00
6.4977E+01 1.3814E+00
6.5039E+01 1.3843E+00
6.5101E+01 1.3872E+00
6.5163E+01 1.3902E+00
6.5225E+01 1.3931E+00
6.5287E+01 1.3961E+00
6.5349E+01 1.3990E+00
6.5410E+01 1.4020E+00
6.5472E+01 1.4050E+00
6.5533E+01 1.4081E+00
6.5594E+01 1.4111E+00
6.5655E+01 1.4142E+00
6.5716E+01 1.4173E+00
6.5777E+01 1.4204E+00
6.5837E+01 1.4235E+00
6.5898E+01 1.4266E+00
6.5958E+01 1.4297E+00
6.6018E+01 1.4329E+00
6.6078E+01 1.4361E+00
6.6138E+01 1.4393E+00
6.6198E+01 1.4425E+00
6.6257E+01 1.4457E+00
6.6317E+01 1.4490E+00
6.6376E+01 1.4523E+00
6.6435E+01 1.4556E+00
6.6494E+01 1.4589E+00
6.6553E+01 1.4622E+00
6.6612E+01 1.4655E+00
6.6670E+01 1.4689E+00
6.6729E+01 1.4723E+00
6.6787E+01 1.4757E+00
6.6845E+01 1.4791E+00
6.6903E+01 1.4826E+00
6.6961E+01 1.4861E+00
6.7019E+01 1.4895E+00
6.7076E+01 1.4931E+00
6.7134E+01 1.4966E+00
6.7191E+01 1.5001E+00
6.7248E+01 1.5037E+00
6.7305E+01 1.5073E+00
6.7362E+01 1.5109E+00
6.7419E+01 1.5146E+00
6.7476E+01 1.5182E+00
6.7532E+01 1.5219E+00
6.7588E+01 1.5256E+00
6.7645E+01 1.5293E+00
6.7701E+01 1.5331E+00
6.7756E+01 1.5369E+00
6.7812E+01 1.5406E+00
6.7868E+01 1.5445E+00
6.7923E+01 1.5483E+00
6.7979E+01 1.5522E+00
6.8034E+01 1.5561E+00
6.8089E+01 1.5600E+00
6.8144E+01 1.5639E+00
6.8198E+01 1.5679E+00
6.8253E+01 1.5719E+00
6.8308E+01 1.5759E+00
6.8362E+01 1.5799E+00
6.8416E+01 1.5840E+00
6.8470E+01 1.5881E+00
6.8524E+01 1.5922E+00
6.8578E+01 1.5964E+00
6.8631E+01 1.6005E+00
6.8685E+01 1.6047E+00
6.8738E+01 1.6090E+00
6.8791E+01 1.6132E+00
6.8844E+01 1.6175E+00
6.8897E+01 1.6218E+00
6.8950E+01 1.6262E+00
6.9002E+01 1.6305E+00
6.9055E+01 1.6349E+00
6.9107E+01 1.6393E+00
6.9159E+01 1.6438E+00
6.9211E+01 1.6483E+00
6.9263E+01 1.6528E+00
6.9315E+01 1.6574E+00
6.9366E+01 1.6619E+00
6.9418E+01 1.6666E+00
6.9469E+01 1.6712E+00
6.9520E+01 1.6759E+00
6.9571E+01 1.6806E+00
6.9622E+01 1.6853E+00
6.9673E+01 1.6901E+00
6.9723E+01 1.6949E+00
6.9773E+01 1.6997E+00
6.9824E+01 1.7046E+00
6.9874E+01 1.7095E+00
6.9924E+01 1.7145E+00
6.9974E+01 1.7194E+00
7.0023E+01 1.7245E+00
7.0073E+01 1.7295E+00
7.0122E+01 1.7346E+00
7.0171E+01 1.7397E+00
7.0220E+01 1.7449E+00
7.0269E+01 1.7501E+00
7.0318E+01 1.7553E+00
7.0367E+01 1.7606E+00
7.0415E+01 1.7659E+00
7.0463E+01 1.7713E+00
7.0512E+01 1.7767E+00
7.0560E+01 1.7821E+00
7.0607E+01 1.7876E+00
7.0655E+01 1.7931E+00
7.0703E+01 1.7987E+00
7.0750E+01 1.8043E+00
7.0798E+01 1.8099E+00
7.0845E+01 1.8156E+00
7.0892E+01 1.8213E+00
7.0938E+01 1.8271E+00
7.0985E+01 1.8330E+00
7.1032E+01 1.8388E+00
7.1078E+01 1.8447E+00
7.1124E+01 1.8507E+00
7.1170E+01 1.8567E+00
7.1216E+01 1.8628E+00
7.1262E+01 1.8689E+00
7.1308E+01 1.8750E+00
7.1353E+01 1.8813E+00
7.1398E+01 1.8875E+00
7.1444E+01 1.8938E+00
7.1489E+01 1.9002E+00
7.1534E+01 1.9066E+00
7.1578E+01 1.9131E+00
7.1623E+01 1.9196E+00
7.1667E+01 1.9262E+00
7.1712E+01 1.9328E+00
7.1756E+01 1.9395E+00
7.1800E+01 1.9463E+00
7.1843E+01 1.9531E+00
7.1887E+01 1.9599E+00
7.1931E+01 1.9669E+00
7.1974E+01 1.9739E+00
7.2017E+01 1.9809E+00
7.2060E+01 1.9880E+00
7.2103E+01 1.9952E+00
7.2146E+01 2.0024E+00
7.2188E+01 2.0097E+00
7.2231E+01 2.0171E+00
7.2273E+01 2.0245E+00
7.2315E+01 2.0321E+00
7.2357E+01 2.0396E+00
7.2399E+01 2.0473E+00
7.2441E+01 2.0550E+00
7.2482E+01 2.0628E+00
7.2524E+01 2.0707E+00
7.2565E+01 2.0786E+00
7.2606E+01 2.0866E+00
7.2647E+01 2.0947E+00
7.2688E+01 2.1029E+00
7.2728E+01 2.1112E+00
7.2769E+01 2.1195E+00
7.2809E+01 2.1279E+00
7.2849E+01 2.1364E+00
7.2889E+01 2.1450E+00
7.2929E+01 2.1537E+00
7.2968E+01 2.1625E+00
7.3008E+01 2.1713E+00
7.3047E+01 2.1803E+00
7.3087E+01 2.1893E+00
7.3126E+01 2.1985E+00
7.3164E+01 2.2077E+00
7.3203E+01 2.2170E+00
7.3242E+01 2.2265E+00
7.3280E+01 2.2360E+00
7.3318E+01 2.2457E+00
7.3356E+01 2.2554E+00
7.3394E+01 2.2653E+00
7.3432E+01 2.2753E+00
7.3470E+01 2.2854E+00
7.3507E+01 2.2956E+00
7.3545E+01 2.3060E+00
7.3582E+01 2.3164E+00
7.3619E+01 2.3270E+00
7.3656E+01 2.3377E+00
7.3692E+01 2.3486E+00
7.3729E+01 2.3596E+00
7.3765E+01 2.3707E+00
7.3801E+01 2.3819E+00
7.3837E+01 2.3934E+00
7.3873E+01 2.4049E+00
7.3909E+01 2.4166E+00
7.3945E+01 2.4285E+00
7.3980E+01 2.4405E+00
7.4015E+01 2.4527E+00
7.4050E+01 2.4651E+00
7.4085E+01 2.4776E+00
7.4120E+01 2.4903E+00
7.4155E+01 2.5032E+00
7.4189E+01 2.5163E+00
7.4223E+01 2.5296E+00
7.4257E+01 2.5431E+00
7.4291E+01 2.5568E+00
7.4325E+01 2.5707E+00
7.4359E+01 2.5848E+00
7.4392E+01 2.5991E+00
7.4426E+01 2.6137E+00
7.4459E+01 2.6285E+00
7.4492E+01 2.6436E+00
7.4525E+01 2.6589E+00
7.4557E+01 2.6744E+00
7.4590E+01 2.6902E+00
7.4622E+01 2.7063E+00
7.4654E+01 2.7227E+00
7.4686E+01 2.7393E+00
7.4718E+01 2.7562E+00
7.4750E+01 2.7735E+00
7.4781E+01 2.7910E+00
7.4813E+01 2.8088E+00
7.4844E+01 2.8269E+00
7.4875E+01 2.8454E+00
7.4906E+01 2.8641E+00
7.4936E+01 2.8832E+00
7.4967E+01 2.9026E+00
7.4997E+01 2.9224E+00
7.5027E+01 2.9425E+00
7.5058E+01 2.9629E+00
7.5087E+01 2.9837E+00
7.5117E+01 3.0048E+00
7.5147E+01 3.0262E+00
7.5176E+01 3.0480E+00
7.5205E+01 3.0702E+00
7.5234E+01 3.0926E+00
7.5263E+01 3.1154E+00
7.5292E+01 3.1385E+00
7.5320E+01 3.1620E+00
7.5349E+01 3.1857E+00
7.5377E+01 3.2098E+00
7.5405E+01 3.2342E+00
7.5433E+01 3.2588E+00
7.5461E+01 3.2837E+00
7.5488E+01 3.3089E+00
7.5515E+01 3.3343E+00
7.5543E+01 3.3600E+00
7.5570E+01 3.3858E+00
7.5596E+01 3.4119E+00
7.5623E+01 3.4381E+00
7.5650E+01 3.4645E+00
7.5676E+01 3.4910E+00
7.5702E+01 3.5177E+00
7.5728E+01 3.5444E+00
7.5754E+01 3.5711E+00
7.5780E+01 3.5979E+00
7.5805E+01 3.6247E+00
7.5830E+01 3.6515E+00
7.5856E+01 3.6782E+00
7.5881E+01 3.7048E+00
7.5905E+01 3.7313E+00
7.5930E+01 3.7577E+00
7.5954E+01 3.7838E+00
7.5979E+01 3.8098E+00
7.6003E+01 3.8355E+00
7.6027E+01 3.8609E+00
7.6050E+01 3.8860E+00
7.6074E+01 3.9108E+00
7.6097E+01 3.9352E+00
7.6121E+01 3.9592E+00
7.6144E+01 3.9827E+00
7.6167E+01 4.0058E+00
7.6189E+01 4.0283E+00
7.6212E+01 4.0503E+00
7.6234E+01 4.0718E+00
7.6256E+01 4.0926E+00
7.6278E+01 4.1128E+00
7.6300E+01 4.1324E+00
7.6322E+01 4.1513E+00
7.6343E+01 4.1695E+00
7.6365E+01 4.1870E+00
7.6386E+01 4.2037E+00
7.6407E+01 4.2197E+00
7.6427E+01 4.2348E+00
7.6448E+01 4.2492E+00
7.6468E+01 4.2628E+00
7.6489E+01 4.2755E+00
7.6509E+01 4.2874E+00
7.6528E+01 4.2984E+00
7.6548E+01 4.3086E+00
7.6568E+01 4.3179E+00
7.6587E+01 4.3263E+00
7.6606E+01 4.3338E+00
7.6625E+01 4.3405E+00
7.6644E+01 4.3462E+00
7.6662E+01 4.3511E+00
7.6681E+01 4.3551E+00
7.6699E+01 4.3583E+00
7.6717E+01 4.3605E+00
7.6735E+01 4.3619E+00
7.6752E+01 4.3625E+00
7.6770E+01 4.3622E+00
7.6787E+01 4.3611E+00
7.6804E+01 4.3591E+00
7.6821E+01 4.3564E+00
7.6838E+01 4.3529E+00
7.6854E+01 4.3486E+00
7.6871E+01 4.3435E+00
7.6887E+01 4.3377E+00
7.6903E+01 4.3312E+00
7.6919E+01 4.3240E+00
7.6934E+01 4.3162E+00
7.6950E+01 4.3077E+00
7.6965E+01 4.2985E+00
7.6980E+01 4.2888E+00
7.6995E+01 4.2785E+00
7.7009E+01 4.2676E+00
7.7024E+01 4.2562E+00
7.7038E+01 4.2443E+00
7.7052E+01 4.2320E+00
7.7066E+01 4.2191E+00
7.7080E+01 4.2059E+00
7.7093E+01 4.1922E+00
7.7106E+01 4.1782E+00
7.7119E+01 4.1639E+00
7.7132E+01 4.1492E+00
7.7145E+01 4.1342E+00
7.7170E+01 4.1035E+00
7.7194E+01 4.0720E+00
7.7217E+01 4.0398E+00
7.7239E+01 4.0071E+00
7.7261E+01 3.9743E+00
7.7281E+01 3.9413E+00
7.7301E+01 3.9086E+00
7.7320E+01 3.8761E+00
7.7338E+01 3.8441E+00
7.7347E+01 3.8283E+00
7.7351E+01 3.8205E+00
7.7356E+01 3.8128E+00
7.7360E+01 3.8050E+00
7.7364E+01 3.7974E+00
7.7368E+01 3.7898E+00
7.7372E+01 3.7822E+00
7.7376E+01 3.7747E+00
7.7380E+01 3.7673E+00
7.7384E+01 3.7599E+00
7.7388E+01 3.7526E+00
7.7391E+01 3.7454E+00
7.7395E+01 3.7383E+00
7.7399E+01 3.7312E+00
7.7402E+01 3.7242E+00
7.7406E+01 3.7172E+00
7.7409E+01 3.7104E+00
7.7413E+01 3.7036E+00
7.7416E+01 3.6969E+00
7.7419E+01 3.6903E+00
7.7423E+01 3.6838E+00
7.7426E+01 3.6774E+00
7.7429E+01 3.6711E+00
7.7432E+01 3.6648E+00
7.7435E+01 3.6587E+00
7.7438E+01 3.6526E+00
7.7441E+01 3.6467E+00
7.7444E+01 3.6409E+00
7.7447E+01 3.6351E+00
7.7449E+01 3.6295E+00
7.7452E+01 3.6240E+00
7.7455E+01 3.6185E+00
7.7457E+01 3.6132E+00
7.7460E+01 3.6080E+00
7.7462E+01 3.6030E+00
7.7464E+01 3.5980E+00
7.7467E+01 3.5932E+00
7.7469E+01 3.5884E+00
7.7471E+01 3.5838E+00
7.7473E+01 3.5794E+00
7.7475E+01 3.5750E+00
7.7479E+01 3.5666E+00
7.7479E+01 3.5658E+00
7.7480E+01 3.5650E+00
7.7480E+01 3.5642E+00
7.7481E+01 3.5634E+00
7.7481E+01 3.5626E+00
7.7481E+01 3.5618E+00
7.7482E+01 3.5610E+00
7.7482E+01 3.5603E+00
7.7482E+01 3.5595E+00
7.7483E+01 3.5587E+00
7.7483E+01 3.5580E+00
7.7483E+01 3.5572E+00
7.7484E+01 3.5565E+00
7.7484E+01 3.5557E+00
7.7484E+01 3.5550E+00
7.7485E+01 3.5543E+00
7.7485E+01 3.5536E+00
7.7485E+01 3.5528E+00
7.7486E+01 3.5521E+00
7.7486E+01 3.5514E+00
7.7486E+01 3.5507E+00
7.7487E+01 3.5500E+00
7.7487E+01 3.5494E+00
7.7487E+01 3.5487E+00
7.7488E+01 3.5480E+00
7.7488E+01 3.5474E+00
7.7488E+01 3.5467E+00
7.7489E+01 3.5460E+00
7.7489E+01 3.5454E+00
7.7489E+01 3.5448E+00
7.7489E+01 3.5441E+00
7.7490E+01 3.5435E+00
7.7490E+01 3.5429E+00
7.7490E+01 3.5423E+00
7.7491E+01 3.5417E+00
7.7491E+01 3.5411E+00
7.7491E+01 3.5405E+00
7.7491E+01 3.5399E+00
7.7492E+01 3.5393E+00
7.7492E+01 3.5387E+00
7.7492E+01 3.5382E+00
7.7492E+01 3.5376E+00
7.7493E+01 3.5371E+00
7.7493E+01 3.5365E+00
7.7493E+01 3.5360E+00
7.7493E+01 3.5354E+00
7.7494E+01 3.5349E+00
7.7494E+01 3.5344E+00
7.7494E+01 3.5339E+00
7.7494E+01 3.5334E+00
7.7495E+01 3.5329E+00
7.7495E+01 3.5324E+00
7.7495E+01 3.5319E+00
7.7495E+01 3.5314E+00
7.7496E+01 3.5309E+00
7.7496E+01 3.5305E+00
7.7496E+01 3.5300E+00
7.7496E+01 3.5296E+00
7.7496E+01 3.5291E+00
7.7497E+01 3.5287E+00
7.7497E+01 3.5282E+00
7.7497E+01 3.5278E+00
7.7497E+01 3.5274E+00
7.7497E+01 3.5270E+00
7.7498E+01 3.5266E+00
7.7498E+01 3.5262E+00
7.7498E+01 3.5258E+00
7.7498E+01 3.5254E+00
7.7498E+01 3.5250E+00
7.7498E+01 3.5246E+00
7.7499E+01 3.5242E+00
7.7499E+01 3.5239E+00
7.7499E+01 3.5235E+00
7.7499E+01 3.5232E+00
7.7499E+01 3.5228E+00
7.7499E+01 3.5225E+00
7.7500E+01 3.5222E+00
7.7500E+01 3.5218E+00
7.7500E+01 3.5215E+00
7.7500E+01 3.5212E+00
7.7500E+01 3.5209E+00
7.7500E+01 3.5206E+00
7.7500E+01 3.5203E+00
7.7501E+01 3.5200E+00
7.7501E+01 3.5197E+00
7.7501E+01 3.5195E+00
7.7501E+01 3.5192E+00
7.7501E+01 3.5189E+00
7.7501E+01 3.5186E+00
7.7501E+01 3.5184E+00
7.7501E+01 3.5181E+00
7.7501E+01 3.5179E+00
7.7502E+01 3.5176E+00
7.7502E+01 3.5173E+00
7.7502E+01 3.5171E+00
7.7502E+01 3.5168E+00
7.7502E+01 3.5165E+00
7.7502E+01 3.5161E+00
7.7502E+01 3.5157E+00
7.7503E+01 3.5156E+00
7.7503E+01 3.5155E+00
7.7503E+01 3.5155E+00
7.7503E+01 3.5154E+00
7.7503E+01 3.5153E+00
7.7503E+01 3.5153E+00
7.7503E+01 3.5152E+00
7.7503E+01 3.5150E+00
7.7503E+01 3.5149E+00
7.7503E+01 3.5149E+00
7.7503E+01 3.5149E+00
7.7503E+01 3.5148E+00
7.7503E+01 3.5148E+00
7.7503E+01 3.5148E+00
7.7503E+01 3.5148E+00
7.7503E+01 3.5147E+00
7.7503E+01 3.5147E+00
7.7503E+01 3.5146E+00
7.7504E+01 3.5124E+00
7.7513E+01 3.4925E+00
7.7553E+01 3.4020E+00
7.7603E+01 3.2846E+00
7.7703E+01 3.0377E+00
7.8003E+01 2.2499E+00
7.8503E+01 1.0802E+00
7.8803E+01 5.9989E-01
7.9103E+01 2.9697E-01
7.9503E+01 9.6860E-02
7.9803E+01 3.6364E-02
8.0103E+01 1.2097E-02
8.0503E+01 2.3063E-03
8.1003E+01 2.1364E-04
8.1503E+01 1.4030E-05
8.2003E+01 6.5196E-07
8.2503E+01 2.1409E-08
8.3003E+01 4.9629E-10
8.3503E+01 8.1151E-12
8.4003E+01 9.3542E-14
8.4503E+01 7.5971E-16
8.5003E+01 4.3456E-18
8.5503E+01 1.7501E-20
